Section 32, Proposed
test
32P.FLD

 DIST    B Horz   B Vert   B PROD    B MAX   E Horz   E Vert   E PROD    E MAX
 (Ft)     (mG)     (mG)     (mG)      (mG)   (kV/m)   (kV/m)   (kV/m)   (V/m)
 ----    ------   ------   ------    -----   ------   ------   ------   ------
-300.00   53.181  121.943  133.035  132.959    0.058    0.612    0.615    0.615
-299.00   54.889  124.116  135.711  135.631    0.060    0.631    0.634    0.634
-298.00   56.674  126.345  138.474  138.389    0.063    0.652    0.655    0.655
-297.00   58.542  128.633  141.328  141.237    0.066    0.673    0.676    0.676
-296.00   60.496  130.981  144.277  144.179    0.069    0.695    0.699    0.699
-295.00   62.542  133.390  147.324  147.220    0.072    0.719    0.722    0.722
-294.00   64.685  135.862  150.475  150.364    0.075    0.743    0.747    0.747
-293.00   66.932  138.400  153.734  153.616    0.079    0.768    0.773    0.773
-292.00   69.287  141.004  157.107  156.981    0.083    0.795    0.799    0.799
-291.00   71.759  143.676  160.599  160.464    0.087    0.823    0.828    0.828
-290.00   74.354  146.417  164.215  164.070    0.091    0.852    0.857    0.857
-289.00   77.080  149.231  167.962  167.807    0.095    0.883    0.888    0.888
-288.00   79.946  152.116  171.845  171.679    0.100    0.915    0.921    0.921
-287.00   82.959  155.077  175.872  175.694    0.105    0.949    0.955    0.955
-286.00   86.131  158.112  180.050  179.858    0.110    0.985    0.991    0.991
-285.00   89.470  161.224  184.386  184.180    0.116    1.022    1.029    1.029
-284.00   92.989  164.414  188.888  188.668    0.122    1.061    1.068    1.068
-283.00   96.699  167.681  193.566  193.328    0.128    1.103    1.110    1.110
-282.00  100.613  171.027  198.427  198.172    0.135    1.146    1.154    1.154
-281.00  104.745  174.452  203.482  203.207    0.142    1.192    1.201    1.200
-280.00  109.109  177.955  208.741  208.444    0.150    1.240    1.249    1.249
-279.00  113.723  181.535  214.214  213.895    0.158    1.291    1.301    1.301
-278.00  118.602  185.191  219.914  219.569    0.167    1.345    1.355    1.355
-277.00  123.767  188.920  225.852  225.479    0.176    1.401    1.412    1.412
-276.00  129.236  192.720  232.040  231.637    0.186    1.461    1.472    1.472
-275.00  135.032  196.586  238.494  238.058    0.196    1.524    1.536    1.536
-274.00  141.177  200.513  245.227  244.755    0.207    1.590    1.603    1.603
-273.00  147.697  204.495  252.255  251.744    0.219    1.660    1.675    1.675
-272.00  154.620  208.524  259.595  259.039    0.231    1.734    1.750    1.750
-271.00  161.973  212.589  267.262  266.659    0.244    1.813    1.829    1.829
-270.00  169.787  216.678  275.276  274.621    0.258    1.896    1.913    1.913
-269.00  178.097  220.777  283.656  282.944    0.273    1.983    2.002    2.002
-268.00  186.938  224.867  292.422  291.646    0.289    2.076    2.096    2.096
-267.00  196.347  228.927  301.595  300.749    0.306    2.174    2.196    2.196
-266.00  206.364  232.932  311.197  310.275    0.323    2.278    2.301    2.301
-265.00  217.032  236.852  321.251  320.244    0.342    2.388    2.412    2.412
-264.00  228.396  240.652  331.781  330.680    0.361    2.504    2.530    2.530
-263.00  240.502  244.291  342.811  341.608    0.381    2.627    2.654    2.654
-262.00  253.399  247.720  354.367  353.050    0.403    2.756    2.786    2.786
-261.00  267.136  250.883  366.475  365.031    0.425    2.893    2.924    2.924
-260.00  281.764  253.714  379.159  377.575    0.448    3.038    3.071    3.071
-259.00  297.331  256.140  392.446  390.705    0.471    3.190    3.225    3.225
-258.00  313.887  258.073  406.358  404.445    0.495    3.351    3.388    3.387
-257.00  331.477  259.415  420.920  418.815    0.520    3.520    3.558    3.558
-256.00  350.141  260.056  436.151  433.834    0.544    3.698    3.737    3.737
-255.00  369.911  259.871  452.070  449.515    0.568    3.883    3.925    3.925
-254.00  390.810  258.722  468.689  465.871    0.592    4.078    4.120    4.120
-253.00  412.844  256.459  486.016  482.905    0.614    4.280    4.324    4.324
-252.00  436.002  252.922  504.051  500.613    0.634    4.490    4.535    4.535
-251.00  460.248  247.942  522.784  518.983    0.652    4.708    4.753    4.753
-250.00  485.514  241.355  542.196  537.991    0.666    4.932    4.976    4.976
-249.00  511.698  233.009  562.252  557.598    0.676    5.160    5.205    5.205
-248.00  538.650  222.786  582.904  577.750    0.681    5.393    5.436    5.436
-247.00  566.171  210.633  604.083  598.375    0.680    5.627    5.668    5.668
-246.00  594.005  196.623  625.701  619.378    0.671    5.860    5.898    5.898
-245.00  621.830  181.043  647.649  640.645    0.653    6.090    6.125    6.125
-244.00  649.263  164.563  669.793  662.037    0.626    6.314    6.345    6.344
-243.00  675.853  148.510  691.977  683.390    0.589    6.527    6.553    6.553
-242.00  701.091  135.268  714.021  704.520    0.540    6.726    6.748    6.747
-241.00  724.425  128.475  735.729  725.225    0.482    6.907    6.923    6.923
-240.00  745.270  132.107  756.888  745.286    0.413    7.064    7.076    7.076
-239.00  763.040  148.095  777.279  764.477    0.339    7.195    7.203    7.202
-238.00  777.174  175.221  796.682  782.575    0.264    7.295    7.300    7.298
-237.00  787.170  210.725  814.888  799.365    0.207    7.360    7.363    7.361
-236.00  792.622  251.973  831.709  814.654    0.199    7.387    7.390    7.387
-235.00  793.245  296.902  846.988  828.279    0.253    7.375    7.380    7.376
-234.00  788.903  343.911  860.606  840.116    0.344    7.323    7.331    7.326
-233.00  779.620  391.703  872.490  850.087    0.449    7.231    7.245    7.238
-232.00  765.584  439.196  882.617  858.161    0.558    7.100    7.122    7.113
-231.00  747.137  485.476  891.011  864.354    0.664    6.933    6.965    6.953
-230.00  724.755  529.789  897.745  868.730    0.765    6.734    6.777    6.762
-229.00  699.026  571.531  902.932  871.390    0.857    6.507    6.563    6.543
-228.00  670.623  610.246  906.717  872.466    0.940    6.258    6.328    6.302
-227.00  640.273  645.619  909.271  872.113    1.013    5.992    6.077    6.044
-226.00  608.743  677.460  910.780  870.500    1.076    5.716    5.816    5.774
-225.00  576.822  705.688  911.438  867.798    1.128    5.436    5.552    5.498
-224.00  545.316  730.307  911.437  864.180    1.171    5.160    5.291    5.222
-223.00  515.044  751.388  910.963  859.803    1.206    4.894    5.040    4.954
-222.00  486.842  769.049  910.193  854.817    1.233    4.646    4.806    4.699
-221.00  461.559  783.429  909.284  849.351    1.253    4.423    4.597    4.467
-220.00  440.042  794.682  908.381  843.514    1.266    4.234    4.420    4.266
-219.00  423.093  802.958  907.606  837.397    1.275    4.086    4.280    4.104
-218.00  411.411  808.395  907.062  831.065    1.279    3.984    4.184    3.991
-217.00  405.502  811.119  906.832  824.567    1.279    3.934    4.136    3.934
-216.00  405.597  811.234  906.979  817.927    1.274    3.936    4.137    3.937
-215.00  411.607  808.834  907.542  811.150    1.264    3.990    4.186    3.997
-214.00  423.125  803.999  908.542  804.224    1.250    4.093    4.279    4.110
-213.00  439.489  796.813  909.979  797.119    1.230    4.237    4.412    4.265
-212.00  459.869  787.372  911.830  789.788    1.204    4.416    4.577    4.454
-211.00  483.346  775.803  914.053  782.177    1.171    4.622    4.768    4.665
-210.00  508.975  762.285  916.588  774.219    1.131    4.845    4.975    4.891
-209.00  535.811  747.071  919.353  765.847    1.082    5.077    5.191    5.123
-208.00  562.935  730.514  922.251  757.000    1.025    5.311    5.409    5.353
-207.00  589.453  713.086  925.174  747.634    0.959    5.538    5.621    5.575
-206.00  614.504  695.390  927.999  737.742    0.886    5.752    5.820    5.782
-205.00  637.274  678.164  930.604  727.391    0.807    5.946    6.000    5.968
-204.00  657.009  662.253  932.867  716.800    0.725    6.113    6.156    6.128
-203.00  673.038  648.560  934.671  706.516    0.646    6.249    6.282    6.257
-202.00  684.800  637.961  935.919  697.836    0.578    6.348    6.374    6.352
-201.00  691.866  631.202  936.533  693.340    0.530    6.408    6.430    6.409
-200.00  693.966  628.784  936.461  695.444    0.513    6.427    6.447    6.427
-199.00  691.003  630.884  935.681  702.886    0.530    6.403    6.425    6.404
-198.00  683.053  637.320  934.204  712.681    0.578    6.338    6.364    6.342
-197.00  670.367  647.583  932.071  723.010    0.647    6.233    6.266    6.243
-196.00  653.351  660.925  929.348  733.059    0.725    6.092    6.135    6.108
-195.00  632.542  676.463  926.127  742.482    0.807    5.918    5.973    5.942
-194.00  608.589  693.291  922.514  751.150    0.886    5.718    5.786    5.750
-193.00  582.218  710.560  918.625  759.038    0.959    5.496    5.579    5.536
-192.00  554.216  727.531  914.580  766.182    1.025    5.260    5.359    5.306
-191.00  525.417  743.598  910.495  772.649    1.082    5.017    5.132    5.067
-190.00  496.690  758.291  906.480  778.525    1.130    4.774    4.906    4.826
-189.00  468.943  771.255  902.631  783.899    1.171    4.539    4.688    4.589
-188.00  443.121  782.240  899.030  788.863    1.204    4.321    4.486    4.365
-187.00  420.200  791.067  895.742  793.500    1.229    4.129    4.308    4.163
-186.00  401.166  797.610  892.814  797.882    1.249    3.970    4.162    3.992
-185.00  386.960  801.777  890.272  802.068    1.263    3.853    4.055    3.864
-184.00  378.384  803.488  888.126  806.100    1.273    3.785    3.993    3.787
-183.00  375.991  802.663  886.362  810.004    1.277    3.771    3.981    3.771
-182.00  379.988  799.215  884.950  813.785    1.278    3.811    4.019    3.817
-181.00  390.195  793.044  883.839  817.431    1.273    3.904    4.107    3.922
-180.00  406.097  784.029  882.958  820.907    1.265    4.047    4.240    4.078
-179.00  426.930  772.038  882.220  824.159    1.250    4.232    4.413    4.277
-178.00  451.807  756.929  881.517  827.114    1.230    4.451    4.618    4.506
-177.00  479.796  738.559  880.723  829.678    1.203    4.697    4.849    4.759
-176.00  509.973  716.798  879.700  831.740    1.168    4.962    5.098    5.026
-175.00  541.447  691.543  878.292  833.173    1.124    5.237    5.357    5.300
-174.00  573.355  662.743  876.336  833.838    1.071    5.516    5.619    5.575
-173.00  604.865  630.415  873.662  833.587    1.008    5.791    5.878    5.843
-172.00  635.170  594.671  870.101  832.273    0.935    6.055    6.126    6.100
-171.00  663.491  555.744  865.489  829.751    0.852    6.301    6.359    6.338
-170.00  689.094  514.005  859.681  825.889    0.759    6.525    6.569    6.553
-169.00  711.303  469.990  852.550  820.576    0.659    6.721    6.753    6.741
-168.00  729.528  424.417  844.003  813.730    0.554    6.884    6.906    6.896
-167.00  743.292  378.208  833.981  805.304    0.448    7.010    7.024    7.016
-166.00  752.253  332.525  822.471  795.290    0.348    7.096    7.105    7.099
-165.00  756.225  288.815  809.501  783.726    0.267    7.142    7.147    7.143
-164.00  755.184  248.902  795.145  770.690    0.228    7.147    7.151    7.147
-163.00  749.266  215.052  779.517  756.300    0.247    7.112    7.116    7.113
-162.00  738.757  189.874  762.768  740.710    0.306    7.038    7.045    7.043
-161.00  724.065  175.672  745.071  724.098    0.381    6.929    6.940    6.938
-160.00  705.691  173.143  726.621  706.661    0.455    6.789    6.804    6.802
-159.00  684.196  180.557  707.620  688.602    0.524    6.620    6.641    6.640
-158.00  660.168  194.654  688.267  670.125    0.583    6.429    6.455    6.454
-157.00  634.190  212.228  668.758  651.426    0.632    6.218    6.250    6.249
-156.00  606.816  230.928  649.271  632.687    0.670    5.993    6.030    6.029
-155.00  578.555  249.268  629.968  614.072    0.698    5.757    5.799    5.798
-154.00  549.855  266.398  610.990  595.726    0.717    5.514    5.560    5.559
-153.00  521.102  281.879  592.456  577.770    0.727    5.267    5.317    5.316
-152.00  492.617  295.529  574.464  560.307    0.730    5.019    5.072    5.071
-151.00  464.656  307.325  557.094  543.417    0.726    4.773    4.828    4.827
-150.00  437.418  317.337  540.405  527.165    0.717    4.530    4.587    4.585
-149.00  411.053  325.690  524.441  511.597    0.704    4.292    4.349    4.348
-148.00  385.664  332.537  509.232  496.746    0.688    4.060    4.118    4.116
-147.00  361.319  338.042  494.797  482.633    0.670    3.834    3.893    3.891
-146.00  338.057  342.368  481.143  469.269    0.649    3.617    3.675    3.673
-145.00  315.890  345.675  468.271  456.657    0.628    3.407    3.465    3.462
-144.00  294.815  348.110  456.176  444.794    0.606    3.206    3.263    3.260
-143.00  274.812  349.810  444.847  433.672    0.584    3.013    3.069    3.066
-142.00  255.856  350.896  434.270  423.280    0.562    2.829    2.885    2.881
-141.00  237.913  351.479  424.430  413.604    0.541    2.654    2.708    2.704
-140.00  220.948  351.657  415.308  404.627    0.520    2.487    2.541    2.535
-139.00  204.926  351.514  406.887  396.334    0.501    2.328    2.381    2.374
-138.00  189.812  351.126  399.147  388.707    0.482    2.178    2.231    2.222
-137.00  175.581  350.558  392.071  381.730    0.465    2.036    2.089    2.079
-136.00  162.211  349.866  385.640  375.387    0.449    1.903    1.955    1.943
-135.00  149.693  349.098  379.839  369.660    0.434    1.778    1.830    1.816
-134.00  138.032  348.295  374.649  364.537    0.421    1.662    1.715    1.697
-133.00  127.248  347.493  370.058  360.004    0.409    1.555    1.608    1.587
-132.00  117.384  346.721  366.052  356.047    0.398    1.458    1.512    1.486
-131.00  108.509  346.003  362.619  352.657    0.389    1.372    1.426    1.395
-130.00  100.720  345.361  359.749  349.823    0.381    1.297    1.351    1.315
-129.00   94.143  344.811  357.432  347.537    0.375    1.234    1.289    1.246
-128.00   88.926  344.366  355.662  345.794    0.370    1.184    1.240    1.192
-127.00   85.223  344.035  354.433  344.586    0.366    1.148    1.205    1.152
-126.00   83.168  343.826  353.741  343.911    0.364    1.128    1.186    1.129
-125.00   82.845  343.742  353.584  343.766    0.363    1.124    1.181    1.124
-124.00   84.261  343.785  353.961  344.151    0.364    1.135    1.192    1.137
-123.00   87.348  343.954  354.872  345.066    0.366    1.162    1.218    1.167
-122.00   91.978  344.245  356.321  346.514    0.369    1.204    1.259    1.213
-121.00   97.993  344.650  358.311  348.497    0.374    1.259    1.313    1.274
-120.00  105.238  345.160  360.847  351.022    0.381    1.327    1.380    1.347
-119.00  113.574  345.763  363.938  354.095    0.388    1.406    1.459    1.431
-118.00  122.894  346.441  367.593  357.724    0.397    1.496    1.548    1.525
-117.00  133.119  347.174  371.820  361.919    0.408    1.596    1.648    1.628
-116.00  144.196  347.938  376.634  366.690    0.420    1.705    1.756    1.740
-115.00  156.096  348.702  382.046  372.051    0.433    1.823    1.874    1.861
-114.00  168.810  349.433  388.072  378.014    0.448    1.950    2.000    1.989
-113.00  182.341  350.088  394.728  384.595    0.464    2.084    2.135    2.126
-112.00  196.707  350.620  402.030  391.808    0.481    2.227    2.278    2.271
-111.00  211.933  350.973  409.997  399.671    0.500    2.378    2.430    2.424
-110.00  228.052  351.082  418.648  408.201    0.519    2.537    2.590    2.584
-109.00  245.099  350.871  428.000  417.413    0.540    2.704    2.758    2.753
-108.00  263.112  350.257  438.073  427.326    0.561    2.880    2.934    2.931
-107.00  282.129  349.141  448.883  437.954    0.582    3.064    3.119    3.116
-106.00  302.185  347.415  460.448  449.312    0.604    3.257    3.313    3.310
-105.00  323.308  344.955  472.781  461.411    0.626    3.458    3.515    3.512
-104.00  345.517  341.627  485.892  474.259    0.648    3.668    3.724    3.723
-103.00  368.818  337.283  499.787  487.858    0.668    3.885    3.942    3.940
-102.00  393.198  331.766  514.464  502.206    0.686    4.110    4.167    4.165
-101.00  418.619  324.913  529.915  517.290    0.702    4.342    4.398    4.397
-100.00  445.015  316.561  546.122  533.089    0.715    4.580    4.635    4.634
 -99.00  472.282  306.561  563.054  549.570    0.724    4.822    4.876    4.875
 -98.00  500.271  294.791  580.665  566.683    0.728    5.068    5.120    5.119
 -97.00  528.784  281.184  598.896  584.366    0.725    5.315    5.364    5.363
 -96.00  557.564  265.771  617.666  602.534    0.715    5.561    5.607    5.606
 -95.00  586.291  248.743  636.876  621.085    0.696    5.804    5.845    5.844
 -94.00  614.581  230.552  656.403  639.894    0.668    6.039    6.076    6.075
 -93.00  641.985  212.070  676.105  658.815    0.630    6.263    6.295    6.294
 -92.00  667.995  194.801  695.819  677.681    0.581    6.474    6.500    6.498
 -91.00  692.057  181.114  715.363  696.308    0.522    6.665    6.685    6.684
 -90.00  713.587  174.195  734.541  714.498    0.454    6.833    6.848    6.846
 -89.00  732.001  177.229  753.150  732.044    0.379    6.973    6.983    6.981
 -88.00  746.736  191.846  770.986  748.740    0.305    7.081    7.088    7.086
 -87.00  757.293  217.305  787.854  764.387    0.246    7.155    7.159    7.156
 -86.00  763.263  251.324  803.576  778.807    0.227    7.190    7.193    7.190
 -85.00  764.363  291.336  818.002  791.844    0.267    7.185    7.190    7.185
 -84.00  760.456  335.107  831.018  803.380    0.348    7.139    7.147    7.141
 -83.00  751.568  380.834  842.549  813.335    0.448    7.052    7.066    7.059
 -82.00  737.885  427.077  852.566  821.674    0.554    6.926    6.948    6.939
 -81.00  719.751  472.682  861.086  828.404    0.659    6.764    6.796    6.783
 -80.00  697.643  516.729  868.167  833.575    0.759    6.568    6.612    6.596
 -79.00  672.152  558.500  873.906  837.270    0.852    6.345    6.402    6.381
 -78.00  643.954  597.462  878.429  839.602    0.935    6.099    6.170    6.143
 -77.00  613.783  633.241  881.886  840.706    1.008    5.835    5.922    5.887
 -76.00  582.415  665.606  884.442  840.727    1.071    5.561    5.663    5.620
 -75.00  550.654  694.445  886.269  839.816    1.124    5.283    5.402    5.346
 -74.00  519.326  719.739  887.539  838.123    1.168    5.009    5.143    5.072
 -73.00  489.283  741.542  888.416  835.789    1.203    4.745    4.895    4.805
 -72.00  461.402  759.955  889.058  832.940    1.230    4.499    4.664    4.553
 -71.00  436.584  775.108  889.605  829.691    1.250    4.279    4.458    4.324
 -70.00  415.733  787.144  890.185  826.135    1.264    4.094    4.285    4.125
 -69.00  399.711  796.205  890.904  822.347    1.273    3.951    4.151    3.969
 -68.00  389.253  802.424  891.853  818.382    1.278    3.856    4.062    3.862
 -67.00  384.871  805.919  893.102  814.272    1.277    3.814    4.022    3.814
 -66.00  386.752  806.792  894.702  810.033    1.273    3.826    4.032    3.827
 -65.00  394.722  805.131  896.684  805.658    1.263    3.890    4.090    3.900
 -64.00  408.270  801.014  899.059  801.123    1.249    4.004    4.194    4.025
 -63.00  426.636  794.519  901.820  796.384    1.230    4.159    4.337    4.192
 -62.00  448.913  785.742  904.938  791.384    1.204    4.349    4.512    4.391
 -61.00  474.138  774.805  908.367  786.051    1.171    4.564    4.712    4.612
 -60.00  501.343  761.887  912.039  780.301    1.131    4.796    4.927    4.846
 -59.00  529.587  747.236  915.874  774.047    1.082    5.036    5.151    5.085
 -58.00  557.961  731.205  919.772  767.200    1.025    5.277    5.376    5.322
 -57.00  585.588  714.262  923.625  759.678    0.959    5.511    5.594    5.550
 -56.00  611.628  697.009  927.313  751.420    0.886    5.731    5.799    5.762
 -55.00  635.287  680.181  930.718  742.401    0.807    5.929    5.984    5.953
 -54.00  655.831  664.621  933.721  732.662    0.725    6.102    6.144    6.118
 -53.00  672.604  651.231  936.215  722.374    0.646    6.242    6.275    6.251
 -52.00  685.063  640.890  938.110  711.972    0.577    6.345    6.371    6.350
 -51.00  692.794  634.344  939.338  702.488    0.529    6.409    6.431    6.410
 -50.00  695.542  632.103  939.858  696.169    0.511    6.432    6.452    6.432
 -49.00  693.221  634.354  939.660  696.028    0.528    6.412    6.434    6.413
 -48.00  685.922  640.930  938.765  702.124    0.576    6.351    6.377    6.355
 -47.00  673.910  651.336  937.226  711.509    0.644    6.250    6.283    6.259
 -46.00  657.602  664.838  935.120  721.958    0.723    6.113    6.156    6.128
 -45.00  637.553  680.567  932.548  732.453    0.804    5.944    5.998    5.967
 -44.00  614.423  697.626  929.623  742.572    0.883    5.749    5.816    5.779
 -43.00  588.955  715.174  926.468  752.153    0.956    5.533    5.615    5.570
 -42.00  561.954  732.475  923.208  761.158    1.022    5.302    5.400    5.345
 -41.00  534.264  748.926  919.961  769.606    1.079    5.066    5.179    5.112
 -40.00  506.770  764.053  916.839  777.552    1.128    4.830    4.960    4.877
 -39.00  480.382  777.504  913.936  785.061    1.169    4.602    4.748    4.648
 -38.00  456.038  789.024  911.334  792.204    1.201    4.392    4.554    4.432
 -37.00  434.689  798.431  909.091  799.049    1.227    4.208    4.383    4.238
 -36.00  417.273  805.597  907.250  805.653    1.247    4.058    4.245    4.077
 -35.00  404.653  810.424  905.832  812.063    1.262    3.949    4.146    3.958
 -34.00  397.539  812.827  904.835  818.307    1.271    3.889    4.091    3.890
 -33.00  396.393  812.723  904.238  824.400    1.276    3.881    4.085    3.881
 -32.00  401.353  810.019  903.999  830.336    1.276    3.926    4.129    3.933
 -31.00  412.221  804.606  904.056  836.088    1.273    4.024    4.220    4.041
 -30.00  428.502  796.359  904.324  841.610    1.264    4.168    4.356    4.199
 -29.00  449.489  785.139  904.700  846.834    1.250    4.354    4.530    4.398
 -28.00  474.358  770.792  905.061  851.669    1.230    4.574    4.737    4.628
 -27.00  502.239  753.164  905.263  856.007    1.203    4.820    4.968    4.880
 -26.00  532.260  732.113  905.147  859.718    1.168    5.085    5.217    5.147
 -25.00  563.565  707.521  904.539  862.656    1.125    5.360    5.476    5.421
 -24.00  595.318  679.312  903.255  864.660    1.072    5.638    5.739    5.696
 -23.00  626.703  647.480  901.103  865.564    1.009    5.913    5.998    5.965
 -22.00  656.920  612.101  897.893  865.197    0.936    6.177    6.248    6.222
 -21.00  685.200  573.359  893.442  863.394    0.853    6.425    6.482    6.462
 -20.00  710.807  531.563  887.584  860.004    0.760    6.651    6.694    6.679
 -19.00  733.067  487.160  880.177  854.899    0.659    6.848    6.880    6.868
 -18.00  751.392  440.737  871.114  847.982    0.553    7.013    7.035    7.026
 -17.00  765.303  393.032  860.327  839.196    0.444    7.142    7.156    7.149
 -16.00  774.456  344.926  847.795  828.527    0.340    7.233    7.241    7.236
 -15.00  778.665  297.459  833.547  816.012    0.250    7.283    7.287    7.283
 -14.00  777.904  251.861  817.661  801.733    0.200    7.292    7.295    7.292
 -13.00  772.310  209.637  800.256  785.817    0.212    7.262    7.265    7.263
 -12.00  762.167  172.734  781.495  768.430    0.272    7.194    7.199    7.198
 -11.00  747.882  143.727  761.567  749.767    0.348    7.091    7.100    7.099
 -10.00  729.956  125.591  740.682  730.043    0.423    6.957    6.970    6.969
  -9.00  708.951  120.134  719.058  709.481    0.492    6.796    6.814    6.813
  -8.00  685.453  125.870  696.914  688.307    0.551    6.612    6.635    6.634
  -7.00  660.046  138.703  674.463  666.738    0.599    6.409    6.437    6.437
  -6.00  633.285  154.664  651.898  644.973    0.637    6.192    6.225    6.225
  -5.00  605.676  171.160  629.396  623.197    0.664    5.965    6.002    6.002
  -4.00  577.671  186.765  607.112  601.567    0.682    5.731    5.772    5.772
  -3.00  549.655  200.776  585.176  580.221    0.691    5.494    5.537    5.537
  -2.00  521.947  212.895  563.696  559.273    0.693    5.256    5.302    5.302
  -1.00  494.805  223.052  542.756  538.811    0.688    5.020    5.067    5.067
   0.00  468.428  231.301  522.422  518.907    0.678    4.787    4.835    4.835
   1.00  442.965  237.762  502.741  499.612    0.663    4.560    4.608    4.608
   2.00  418.520  242.591  483.745  480.962    0.646    4.339    4.386    4.386
   3.00  395.159  245.956  465.452  462.979    0.625    4.125    4.172    4.172
   4.00  372.919  248.027  447.868  445.674    0.603    3.918    3.964    3.964
   5.00  351.812  248.965  430.993  429.049    0.580    3.720    3.765    3.765
   6.00  331.830  248.922  414.817  413.097    0.555    3.530    3.574    3.574
   7.00  312.952  248.038  399.326  397.807    0.531    3.349    3.391    3.391
   8.00  295.145  246.436  384.502  383.162    0.506    3.177    3.217    3.217
   9.00  278.369  244.230  370.321  369.143    0.482    3.012    3.051    3.051
  10.00  262.579  241.518  356.761  355.728    0.459    2.856    2.893    2.893
  11.00  247.726  238.385  343.796  342.893    0.436    2.708    2.743    2.743
  12.00  233.761  234.908  331.400  330.614    0.414    2.567    2.600    2.600
  13.00  220.635  231.151  319.547  318.865    0.392    2.434    2.465    2.465
  14.00  208.296  227.171  308.211  307.623    0.372    2.307    2.337    2.337
  15.00  196.697  223.016  297.365  296.861    0.352    2.188    2.216    2.216
  16.00  185.792  218.728  286.986  286.556    0.334    2.074    2.101    2.101
  17.00  175.536  214.341  277.047  276.685    0.316    1.967    1.992    1.992
  18.00  165.887  209.885  267.526  267.223    0.300    1.866    1.889    1.889
  19.00  156.805  205.385  258.400  258.150    0.284    1.769    1.792    1.792
  20.00  148.252  200.862  249.648  249.445    0.269    1.678    1.700    1.700
  21.00  140.193  196.333  241.248  241.086    0.255    1.592    1.612    1.612
  22.00  132.594  191.814  233.182  233.056    0.242    1.510    1.529    1.529
  23.00  125.426  187.315  225.430  225.335    0.229    1.432    1.451    1.451
  24.00  118.660  182.847  217.976  217.906    0.217    1.359    1.376    1.376
  25.00  112.269  178.418  210.801  210.753    0.206    1.289    1.305    1.305
  26.00  106.228  174.032  203.891  203.861    0.196    1.223    1.238    1.238
  27.00  100.514  169.695  197.230  197.214    0.186    1.160    1.175    1.175
  28.00   95.108  165.412  190.805  190.798    0.177    1.100    1.114    1.114
  29.00   89.988  161.182  184.601  184.600    0.168    1.043    1.057    1.057
  30.00   85.138  157.010  178.607  178.607    0.160    0.990    1.002    1.002
  31.00   80.540  152.895  172.811  172.808    0.152    0.938    0.951    0.950
  32.00   76.181  148.837  167.200  167.191    0.145    0.889    0.901    0.901
  33.00   72.045  144.837  161.766  161.746    0.138    0.843    0.854    0.854
  34.00   68.121  140.893  156.497  156.462    0.132    0.799    0.810    0.809
  35.00   64.397  137.004  151.384  151.330    0.126    0.757    0.767    0.767
  36.00   60.864  133.169  146.419  146.340    0.120    0.717    0.727    0.726
  37.00   57.511  129.387  141.592  141.484    0.115    0.679    0.688    0.688
  38.00   54.331  125.654  136.897  136.754    0.109    0.642    0.652    0.651
  39.00   51.317  121.969  132.325  132.141    0.105    0.608    0.617    0.616
  40.00   48.463  118.330  127.870  127.638    0.100    0.575    0.584    0.583
  41.00   45.765  114.734  123.524  123.237    0.096    0.544    0.552    0.551
  42.00   43.218  111.178  119.282  118.933    0.091    0.514    0.522    0.521
  43.00   40.820  107.659  115.138  114.717    0.088    0.486    0.494    0.493
  44.00   38.570  104.176  111.087  110.585    0.084    0.459    0.467    0.466
  45.00   36.467  100.725  107.123  106.528    0.080    0.434    0.442    0.440
  46.00   34.512   97.303  103.242  102.543    0.077    0.411    0.418    0.416
  47.00   32.708   93.907   99.440   98.623    0.074    0.388    0.395    0.394
  48.00   31.057   90.534   95.713   94.762    0.071    0.368    0.374    0.373
  49.00   29.563   87.181   92.057   90.955    0.068    0.348    0.355    0.353
  50.00   28.231   83.845   88.470   87.197    0.065    0.331    0.337    0.335
  51.00   27.066   80.523   84.950   83.482    0.062    0.315    0.321    0.318
  52.00   26.073   77.212   81.495   79.807    0.060    0.300    0.306    0.303
  53.00   25.256   73.908   78.104   76.165    0.057    0.287    0.293    0.290
  54.00   24.618   70.608   74.776   72.553    0.055    0.276    0.282    0.278
  55.00   24.160   67.309   71.514   68.965    0.053    0.267    0.272    0.268
  56.00   23.881   64.008   68.318   65.398    0.051    0.259    0.264    0.260
  57.00   23.777   60.702   65.192   61.846    0.049    0.254    0.258    0.254
  58.00   23.840   57.386   62.141   58.305    0.047    0.250    0.254    0.250
  59.00   24.063   54.059   59.173   54.772    0.045    0.248    0.252    0.248
  60.00   24.433   50.717   56.295   51.243    0.044    0.248    0.252    0.248
  61.00   24.939   47.356   53.521   47.713    0.042    0.249    0.253    0.250
  62.00   25.569   43.973   50.867   44.183    0.041    0.253    0.256    0.253
  63.00   26.311   40.567   48.352   40.654    0.040    0.257    0.261    0.258
  64.00   27.152   37.133   46.001   37.142    0.040    0.264    0.267    0.264
  65.00   28.082   33.671   43.845   33.723    0.039    0.271    0.274    0.272
  66.00   29.092   30.179   41.918   31.072    0.039    0.280    0.282    0.281
  67.00   30.174   26.658   40.263   31.079    0.039    0.290    0.292    0.291
  68.00   31.321   23.111   38.924   32.042    0.040    0.300    0.303    0.302
  69.00   32.526   19.548   37.948   33.171    0.040    0.312    0.315    0.314
  70.00   33.787   15.989   37.379   34.376    0.042    0.325    0.328    0.327
  71.00   35.099   12.489   37.254   35.636    0.043    0.339    0.341    0.341
  72.00   36.459    9.190   37.599   36.946    0.045    0.353    0.356    0.356
  73.00   37.867    6.526   38.425   38.306    0.048    0.369    0.372    0.372
  74.00   39.321    5.666   39.727   39.715    0.051    0.385    0.388    0.388
  75.00   40.822    7.410   41.489   41.175    0.054    0.402    0.406    0.406
  76.00   42.370   10.635   43.684   42.690    0.058    0.420    0.424    0.424
  77.00   43.968   14.456   46.283   44.262    0.062    0.439    0.444    0.443
  78.00   45.617   18.576   49.255   45.895    0.066    0.460    0.464    0.464
  79.00   47.322   22.895   52.569   47.596    0.072    0.481    0.486    0.486
  80.00   49.085   27.373   56.202   49.374    0.077    0.504    0.510    0.509
  81.00   50.913   31.994   60.131   51.240    0.083    0.528    0.534    0.533
  82.00   52.812   36.753   64.341   53.216    0.090    0.554    0.561    0.559
  83.00   54.788   41.647   68.819   55.340    0.097    0.581    0.589    0.587
  84.00   56.850   46.677   73.557   57.682    0.105    0.610    0.619    0.617
  85.00   59.008   51.844   78.548   60.373    0.114    0.641    0.651    0.649
  86.00   61.274   57.152   83.791   63.634    0.123    0.675    0.686    0.683
  87.00   63.662   62.602   89.285   67.688    0.133    0.711    0.723    0.720
  88.00   66.186   68.197   95.033   72.543    0.144    0.750    0.763    0.760
  89.00   68.864   73.937  101.040   78.022    0.155    0.792    0.807    0.802
  90.00   71.718   79.824  107.310   83.962    0.168    0.837    0.853    0.849
  91.00   74.769   85.858  113.851   90.270    0.181    0.885    0.904    0.899
  92.00   78.044   92.036  120.671   96.906    0.196    0.938    0.958    0.953
  93.00   81.573   98.356  127.781  103.856    0.211    0.995    1.018    1.012
  94.00   85.390  104.812  135.192  111.119    0.228    1.057    1.082    1.075
  95.00   89.531  111.396  142.915  118.700    0.246    1.124    1.151    1.144
  96.00   94.038  118.098  150.964  126.611    0.265    1.197    1.226    1.219
  97.00   98.956  124.903  159.353  134.866    0.286    1.276    1.308    1.300
  98.00  104.336  131.795  168.095  143.481    0.308    1.362    1.396    1.388
  99.00  110.232  138.748  177.207  152.474    0.332    1.455    1.492    1.484
 100.00  116.702  145.736  186.704  161.861    0.357    1.555    1.595    1.587
 101.00  123.807  152.723  196.603  171.663    0.383    1.664    1.707    1.699
 102.00  131.614  159.667  206.920  181.900    0.411    1.781    1.828    1.819
 103.00  140.189  166.517  217.672  192.591    0.440    1.908    1.958    1.949
 104.00  149.601  173.214  228.875  203.757    0.471    2.045    2.099    2.090
 105.00  159.922  179.685  240.545  215.416    0.503    2.192    2.249    2.240
 106.00  171.219  185.849  252.697  227.587    0.536    2.350    2.411    2.402
 107.00  183.558  191.609  265.344  240.288    0.570    2.520    2.584    2.575
 108.00  196.998  196.857  278.497  253.532    0.604    2.701    2.768    2.759
 109.00  211.593  201.466  292.165  267.331    0.638    2.895    2.964    2.955
 110.00  227.382  205.300  306.351  281.694    0.672    3.100    3.172    3.163
 111.00  244.391  208.205  321.055  296.624    0.704    3.317    3.391    3.383
 112.00  262.623  210.016  336.270  312.116    0.735    3.546    3.621    3.613
 113.00  282.057  210.559  351.982  328.159    0.763    3.785    3.861    3.854
 114.00  302.639  209.658  368.167  344.733    0.787    4.035    4.111    4.104
 115.00  324.275  207.143  384.789  361.805    0.806    4.293    4.368    4.362
 116.00  346.829  202.869  401.804  379.330    0.819    4.559    4.632    4.626
 117.00  370.110  196.733  419.149  397.247    0.824    4.829    4.899    4.893
 118.00  393.870  188.717  436.747  415.482    0.820    5.102    5.167    5.162
 119.00  417.800  178.940  454.507  433.939    0.806    5.373    5.433    5.428
 120.00  441.527  167.742  472.317  452.508    0.781    5.639    5.693    5.689
 121.00  464.618  155.823  490.052  471.059    0.743    5.896    5.942    5.939
 122.00  486.589  144.426  507.570  489.447    0.691    6.139    6.177    6.175
 123.00  506.914  135.529  524.719  507.514    0.627    6.363    6.394    6.391
 124.00  525.050  131.795  541.338  525.092    0.549    6.563    6.586    6.584
 125.00  540.456  135.843  557.266  542.012    0.459    6.734    6.750    6.748
 126.00  552.624  148.946  572.345  558.107    0.359    6.872    6.882    6.880
 127.00  561.113  170.448  586.431  573.222    0.252    6.973    6.978    6.977
 128.00  565.572  198.513  599.399  587.222    0.146    7.033    7.035    7.034
 129.00  565.766  231.120  611.153  599.998    0.084    7.051    7.052    7.051
 130.00  561.595  266.520  621.628  611.475    0.149    7.026    7.027    7.027
 131.00  553.093  303.302  630.797  621.616    0.257    6.958    6.962    6.962
 132.00  540.432  340.339  638.669  630.421    0.366    6.848    6.858    6.858
 133.00  523.896  376.741  645.291  637.927    0.469    6.701    6.717    6.717
 134.00  503.862  411.813  650.744  644.210    0.563    6.518    6.542    6.542
 135.00  480.774  445.040  655.137  649.373    0.646    6.304    6.337    6.337
 136.00  455.103  476.062  658.600  653.544    0.717    6.065    6.107    6.107
 137.00  427.330  504.661  661.282  656.870    0.775    5.803    5.855    5.855
 138.00  397.910  530.740  663.338  659.505    0.820    5.525    5.586    5.586
 139.00  367.260  554.302  664.929  661.613    0.854    5.235    5.304    5.304
 140.00  335.744  575.427  666.213  663.353    0.877    4.936    5.014    5.014
 141.00  303.663  594.254  667.345  664.883    0.891    4.632    4.717    4.717
 142.00  271.257  610.959  668.469  666.353    0.897    4.327    4.419    4.419
 143.00  238.703  625.738  669.721  667.902    0.896    4.022    4.121    4.120
 144.00  206.128  638.794  671.227  669.659    0.890    3.720    3.825    3.824
 145.00  173.621  650.322  673.099  671.743    0.880    3.422    3.534    3.532
 146.00  141.265  660.502  675.439  674.258    0.867    3.131    3.249    3.246
 147.00  109.211  669.490  678.339  677.300    0.853    2.846    2.971    2.967
 148.00   77.921  677.409  681.876  680.951    0.837    2.569    2.702    2.696
 149.00   49.267  684.350  686.121  685.284    0.822    2.301    2.444    2.434
 150.00   32.679  690.357  691.130  690.359    0.807    2.043    2.197    2.181
 151.00   45.984  695.432  696.950  696.224    0.794    1.797    1.965    1.940
 152.00   75.787  699.523  703.617  702.915    0.782    1.566    1.750    1.711
 153.00  110.430  702.523  711.149  710.453    0.772    1.354    1.558    1.496
 154.00  147.561  704.261  719.554  718.845    0.764    1.169    1.397    1.297
 155.00  186.701  704.499  728.818  728.076    0.757    1.024    1.274    1.119
 156.00  227.776  702.923  738.907  738.110    0.752    0.936    1.201    0.970
 157.00  270.805  699.145  749.759  748.885    0.747    0.920    1.185    0.925
 158.00  315.796  692.694  761.283  760.305    0.742    0.977    1.227    1.040
 159.00  362.695  683.024  773.349  772.237    0.736    1.096    1.321    1.199
 160.00  411.336  669.520  785.783  784.504    0.728    1.259    1.454    1.377
 161.00  461.411  651.523  798.362  796.877    0.715    1.447    1.614    1.565
 162.00  512.426  628.357  810.810  809.077    0.697    1.651    1.792    1.761
 163.00  563.673  599.386  822.795  820.765    0.672    1.861    1.978    1.958
 164.00  614.207  564.080  833.929  831.553    0.638    2.069    2.165    2.152
 165.00  662.852  522.106  843.782  841.008    0.594    2.271    2.347    2.338
 166.00  708.225  473.432  851.893  848.667    0.539    2.459    2.518    2.512
 167.00  748.808  418.451  857.796  854.067    0.474    2.630    2.672    2.668
 168.00  783.053  358.109  861.054  856.773    0.399    2.777    2.805    2.802
 169.00  809.526  294.090  861.290  856.418    0.316    2.896    2.913    2.910
 170.00  827.061  229.199  858.231  852.736    0.231    2.983    2.992    2.990
 171.00  834.904  168.481  851.734  845.597    0.150    3.036    3.040    3.038
 172.00  832.818  122.672  841.804  835.022    0.098    3.055    3.056    3.055
 173.00  821.117  111.120  828.601  821.185    0.118    3.039    3.042    3.040
 174.00  800.628  137.937  812.424  804.400    0.179    2.993    2.998    2.997
 175.00  772.591  181.739  793.678  785.089    0.242    2.919    2.929    2.928
 176.00  738.505  227.810  772.844  763.746    0.299    2.822    2.838    2.836
 177.00  699.980  270.509  750.432  740.896    0.344    2.706    2.728    2.727
 178.00  658.589  307.761  726.950  717.055    0.378    2.577    2.605    2.604
 179.00  615.758  338.930  702.873  692.710    0.400    2.439    2.472    2.471
 180.00  572.701  364.073  678.627  668.293    0.413    2.297    2.333    2.332
 181.00  530.386  383.612  654.574  644.171    0.417    2.152    2.192    2.191
 182.00  489.536  398.161  631.014  620.648    0.415    2.008    2.051    2.050
 183.00  450.646  408.418  608.184  597.965    0.406    1.868    1.912    1.911
 184.00  414.013  415.092  586.266  576.304    0.394    1.732    1.776    1.776
 185.00  379.772  418.863  565.396  555.798    0.380    1.601    1.645    1.645
 186.00  347.931  420.355  545.669  536.539    0.364    1.475    1.520    1.520
 187.00  318.402  420.125  527.148  518.585    0.348    1.356    1.400    1.400
 188.00  291.028  418.655  509.872  501.966    0.333    1.243    1.287    1.287
 189.00  265.605  416.354  493.859  486.689    0.319    1.135    1.179    1.179
 190.00  241.904  413.564  479.117  472.746    0.306    1.033    1.078    1.077
 191.00  219.680  410.560  465.639  460.113    0.296    0.937    0.982    0.980
 192.00  198.687  407.560  453.411  448.757    0.288    0.845    0.893    0.888
 193.00  178.685  404.726  442.415  438.635    0.283    0.758    0.809    0.802
 194.00  159.446  402.173  432.627  429.697    0.280    0.677    0.733    0.720
 195.00  140.762  399.974  424.020  421.887    0.280    0.603    0.665    0.644
 196.00  122.453  398.158  416.563  415.145    0.283    0.538    0.607    0.574
 197.00  104.374  396.720  410.220  409.405    0.287    0.484    0.562    0.512
 198.00   86.446  395.620  404.955  404.597    0.293    0.446    0.533    0.460
 199.00   68.713  394.788  400.723  400.647    0.300    0.429    0.524    0.430
 200.00   51.533  394.122  397.477  397.473    0.309    0.437    0.535    0.444
 201.00   36.258  393.496  395.163  394.993    0.318    0.470    0.567    0.496
 202.00   27.509  392.758  393.720  393.114    0.327    0.525    0.618    0.565
 203.00   32.484  391.737  393.082  391.740    0.335    0.596    0.684    0.646
 204.00   47.872  390.246  393.171  390.765    0.343    0.681    0.762    0.734
 205.00   67.435  388.090  393.905  390.078    0.348    0.775    0.850    0.828
 206.00   88.837  385.078  395.193  389.560    0.352    0.876    0.944    0.927
 207.00  111.211  381.036  396.933  389.086    0.353    0.981    1.042    1.028
 208.00  134.069  375.824  399.021  388.523    0.350    1.088    1.143    1.130
 209.00  157.000  369.363  401.345  387.742    0.344    1.194    1.243    1.232
 210.00  179.584  361.658  403.791  386.612    0.333    1.298    1.340    1.330
 211.00  201.364  352.826  406.243  385.013    0.319    1.398    1.434    1.423
 212.00  221.852  343.118  408.592  382.842    0.303    1.489    1.520    1.509
 213.00  240.547  332.929  410.737  380.026    0.286    1.572    1.597    1.586
 214.00  256.973  322.790  412.588  376.530    0.271    1.642    1.664    1.651
 215.00  270.721  313.315  414.073  372.382    0.263    1.698    1.719    1.704
 216.00  281.500  305.122  415.140  367.680    0.266    1.740    1.760    1.742
 217.00  289.191  298.705  415.759  362.624    0.280    1.766    1.788    1.767
 218.00  293.886  294.313  415.920  357.527    0.306    1.777    1.803    1.777
 219.00  295.921  291.850  415.627  352.821    0.338    1.776    1.807    1.776
 220.00  295.873  290.861  414.899  349.017    0.373    1.764    1.803    1.764
 221.00  294.533  290.593  413.756  346.582    0.407    1.746    1.793    1.746
 222.00  292.831  290.123  412.215  345.760    0.437    1.726    1.780    1.727
 223.00  291.726  288.494  410.284  346.444    0.459    1.709    1.770    1.709
 224.00  292.050  284.837  407.952  348.221    0.473    1.699    1.764    1.699
 225.00  294.357  278.451  405.193  350.554    0.476    1.699    1.765    1.699
 226.00  298.811  268.856  401.960  352.922    0.469    1.711    1.774    1.711
 227.00  305.151  255.813  398.193  354.897    0.450    1.733    1.790    1.734
 228.00  312.756  239.334  393.824  356.153    0.422    1.762    1.812    1.765
 229.00  320.771  219.682  388.785  356.450    0.384    1.796    1.837    1.799
 230.00  328.255  197.360  383.018  355.623    0.340    1.830    1.861    1.832
 231.00  334.318  173.113  376.479  353.572    0.291    1.859    1.881    1.860
 232.00  338.217  147.930  369.153  350.253    0.240    1.879    1.894    1.880
 233.00  339.416  123.105  361.051  345.675    0.192    1.888    1.897    1.888
 234.00  337.611  100.365  352.214  339.892    0.153    1.882    1.889    1.883
 235.00  332.731   82.107  342.712  332.997    0.132    1.863    1.868    1.864
 236.00  324.905   71.311  332.638  325.117    0.134    1.829    1.834    1.832
 237.00  314.427   69.912  322.105  316.399    0.152    1.782    1.789    1.788
 238.00  301.704   76.424  311.233  307.003    0.176    1.724    1.733    1.733
 239.00  287.208   87.168  300.144  297.093    0.200    1.655    1.668    1.668
 240.00  271.428   99.114  288.958  286.829    0.221    1.580    1.595    1.595
 241.00  254.839  110.551  277.785  276.358    0.237    1.499    1.517    1.517
 242.00  237.869  120.657  266.720  265.815    0.247    1.414    1.436    1.435
 243.00  220.888  129.096  255.846  255.313    0.253    1.329    1.353    1.351
 244.00  204.201  135.795  245.231  244.950    0.254    1.243    1.269    1.267
 245.00  188.041  140.819  234.925  234.802    0.252    1.159    1.186    1.184
 246.00  172.583  144.309  224.967  224.931    0.246    1.077    1.105    1.103
 247.00  157.945  146.435  215.383  215.381    0.238    0.999    1.027    1.024
 248.00  144.197  147.381  206.189  206.183    0.228    0.924    0.952    0.949
 249.00  131.374  147.327  197.394  197.357    0.217    0.853    0.881    0.878
 250.00  119.479  146.439  188.997  188.913    0.206    0.787    0.813    0.810
 251.00  108.496  144.870  180.994  180.855    0.194    0.725    0.750    0.747
 252.00   98.391  142.754  173.377  173.180    0.181    0.667    0.691    0.688
 253.00   89.123  140.206  166.134  165.880    0.169    0.613    0.636    0.633
 254.00   80.641  137.327  159.253  158.945    0.158    0.564    0.585    0.582
 255.00   72.893  134.200  152.719  152.361    0.146    0.518    0.538    0.535
 256.00   65.827  130.896  146.516  146.115    0.136    0.476    0.495    0.491
 257.00   59.390  127.472  140.628  140.192    0.125    0.437    0.455    0.451
 258.00   53.533  123.978  135.041  134.576    0.116    0.401    0.418    0.414
 259.00   48.206  120.451  129.739  129.251    0.107    0.369    0.384    0.381
 260.00   43.368  116.923  124.707  124.202    0.099    0.339    0.353    0.350
 261.00   38.974  113.420  119.930  119.414    0.091    0.311    0.325    0.322
 262.00   34.990  109.961  115.394  114.872    0.084    0.287    0.299    0.296
 263.00   31.378  106.562  111.086  110.562    0.077    0.264    0.275    0.272
 264.00   28.109  103.236  106.994  106.472    0.071    0.243    0.253    0.250
 265.00   25.154   99.990  103.106  102.588    0.066    0.224    0.234    0.231
 266.00   22.487   96.833   99.410   98.900    0.061    0.207    0.216    0.213
 267.00   20.086   93.768   95.895   95.395    0.056    0.191    0.199    0.197
 268.00   17.930   90.798   92.552   92.063    0.052    0.177    0.184    0.182
 269.00   16.001   87.926   89.370   88.894    0.048    0.164    0.171    0.168
 270.00   14.285   85.152   86.342   85.880    0.044    0.153    0.159    0.156
 271.00   12.766   82.476   83.458   83.010    0.041    0.142    0.148    0.146
 272.00   11.435   79.896   80.710   80.277    0.038    0.133    0.138    0.136
 273.00   10.279   77.412   78.092   77.674    0.035    0.125    0.129    0.127
 274.00    9.290   75.022   75.595   75.193    0.032    0.117    0.121    0.119
 275.00    8.460   72.724   73.214   72.827    0.030    0.110    0.114    0.112
 276.00    7.778   70.515   70.942   70.570    0.027    0.104    0.108    0.106
 277.00    7.234   68.392   68.774   68.417    0.025    0.099    0.102    0.100
 278.00    6.817   66.353   66.703   66.360    0.024    0.095    0.097    0.095
 279.00    6.511   64.396   64.724   64.396    0.022    0.090    0.093    0.091
 280.00    6.301   62.517   62.834   62.519    0.020    0.087    0.089    0.087
 281.00    6.171   60.713   61.026   60.725    0.019    0.084    0.086    0.084
 282.00    6.103   58.982   59.297   59.009    0.018    0.081    0.083    0.081
 283.00    6.083   57.321   57.643   57.367    0.016    0.079    0.080    0.079
 284.00    6.097   55.727   56.059   55.796    0.015    0.076    0.078    0.077
 285.00    6.135   54.197   54.543   54.291    0.014    0.075    0.076    0.075
 286.00    6.188   52.729   53.090   52.849    0.013    0.073    0.074    0.073
 287.00    6.248   51.319   51.698   51.468    0.012    0.072    0.073    0.072
 288.00    6.311   49.967   50.364   50.144    0.012    0.070    0.071    0.070
 289.00    6.373   48.668   49.084   48.873    0.011    0.069    0.070    0.069
 290.00    6.431   47.422   47.856   47.654    0.010    0.068    0.069    0.068
 291.00    6.484   46.224   46.677   46.485    0.009    0.067    0.068    0.067
 292.00    6.530   45.075   45.545   45.361    0.009    0.067    0.067    0.067
 293.00    6.569   43.970   44.458   44.282    0.008    0.066    0.066    0.066
 294.00    6.600   42.909   43.413   43.245    0.008    0.065    0.066    0.065
 295.00    6.623   41.889   42.409   42.248    0.007    0.065    0.065    0.065
 296.00    6.639   40.908   41.443   41.289    0.007    0.064    0.064    0.064
 297.00    6.647   39.965   40.514   40.367    0.007    0.063    0.064    0.063
 298.00    6.649   39.058   39.620   39.479    0.006    0.063    0.063    0.063
 299.00    6.643   38.186   38.759   38.624    0.006    0.062    0.063    0.062
 300.00    6.632   37.346   37.930   37.801    0.006    0.062    0.062    0.062
